%
%
% Run:EXP   Table:LINE1             SWAN version:41.20AB
%
%       Dist          Depth         Hsig          Dir           Dspr          Tm01          Tm02          RTpeak      X-Vel         Y-Vel           Ssurf         Qb       
%       [m]           [m]           [m]           [degr]        [degr]        [sec]         [sec]         [sec]         [m/s]         [m/s]         [m2/s]        [ ]      
%
           0.        0.3967       8.30227       181.733        4.0705        8.5415        8.0624       10.4241      0.000000      0.000000     0.0000000      1.000000 
           3.        0.4068       8.25196       181.739        4.0842        8.5405        8.0606       10.4241      0.000000      0.000000     0.0000000      1.000000 
           7.        0.4171       8.20180       181.761        4.1339        8.5394        8.0584       10.4241      0.000000      0.000000     0.0000000      1.000000 
          10.        0.4278       8.15159       181.784        4.1848        8.5382        8.0563       10.4241      0.000000      0.000000     0.0000000      1.000000 
          13.        0.4389       8.10135       181.807        4.2367        8.5369        8.0540       10.4241      0.000000      0.000000     0.0000000      1.000000 
          17.        0.4504       8.05110       181.831        4.2896        8.5356        8.0517       10.4241      0.000000      0.000000     0.0000000      1.000000 
          20.        0.4622       8.00083       181.855        4.3437        8.5343        8.0493       10.4241      0.000000      0.000000     0.0000000      1.000000 
          23.        0.4745       7.95059       181.880        4.3989        8.5329        8.0468       10.4241      0.000000      0.000000     0.0000000      1.000000 
          27.        0.4871       7.90036       181.905        4.4555        8.5315        8.0442       10.4241      0.000000      0.000000     0.0000000      1.000000 
          30.        0.5002       7.85015       181.931        4.5133        8.5300        8.0416       10.4241      0.000000      0.000000     0.0000000      1.000000 
          33.        0.5137       7.80001       181.957        4.5714        8.5285        8.0388       10.4241      0.000000      0.000000     0.0000000      1.000000 
          37.        0.5277       7.74992       181.984        4.6314        8.5269        8.0360       10.4241      0.000000      0.000000     0.0000000      1.000000 
          40.        0.5421       7.69989       182.011        4.6927        8.5253        8.0331       10.4241      0.000000      0.000000     0.0000000      1.000000 
          43.        0.5571       7.64996       182.039        4.7550        8.5236        8.0300       10.4241      0.000000      0.000000     0.0000000      1.000000 
          47.        0.5725       7.60012       182.068        4.8187        8.5218        8.0269       10.4241      0.000000      0.000000     0.0000000      1.000000 
          50.        0.5884       7.55037       182.097        4.8838        8.5200        8.0237       10.4241      0.000000      0.000000     0.0000000      1.000000 
          53.        0.6049       7.50077       182.127        4.9500        8.5181        8.0204       10.4241      0.000000      0.000000     0.0000000      1.000000 
          57.        0.6220       7.45128       182.157        5.0173        8.5162        8.0169       10.4241      0.000000      0.000000     0.0000000      1.000000 
          60.        0.6396       7.40192       182.188        5.0861        8.5142        8.0134       10.4241      0.000000      0.000000     0.0000000      1.000000 
          63.        0.6578       7.35274       182.219        5.1566        8.5121        8.0097       10.4241      0.000000      0.000000     0.0000000      1.000000 
          67.        0.6766       7.30371       182.252        5.2282        8.5099        8.0059       10.4241      0.000000      0.000000     0.0000000      1.000000 
          70.        0.6960       7.25483       182.284        5.3014        8.5077        8.0020       10.4241      0.000000      0.000000     0.0000000      1.000000 
          73.        0.7162       7.20618       182.318        5.3758        8.5054        7.9980       10.4241      0.000000      0.000000     0.0000000      1.000000 
          77.        0.7369       7.15770       182.352        5.4514        8.5030        7.9939       10.4241      0.000000      0.000000     0.0000000      1.000000 
          80.        0.7584       7.10939       182.387        5.5290        8.5005        7.9896       10.4241      0.000000      0.000000     0.0000000      1.000000 
          83.        0.7806       7.06135       182.422        5.6077        8.4979        7.9852       10.4241      0.000000      0.000000     0.0000000      1.000000 
          87.        0.8035       7.01350       182.459        5.6882        8.4953        7.9806       10.4241      0.000000      0.000000     0.0000000      1.000000 
          90.        0.8272       6.96586       182.496        5.7702        8.4925        7.9759       10.4241      0.000000      0.000000     0.0000000      1.000000 
          93.        0.8517       6.91851       182.533        5.8536        8.4897        7.9711       10.4241      0.000000      0.000000     0.0000000      1.000000 
          97.        0.8770       6.87139       182.572        5.9390        8.4867        7.9661       10.4241      0.000000      0.000000     0.0000000      1.000000 
         100.        0.9031       6.82449       182.611        6.0256        8.4837        7.9610       10.4241      0.000000      0.000000     0.0000000      1.000000 
         103.        0.9302       6.77791       182.651        6.1136        8.4805        7.9557       10.4241      0.000000      0.000000     0.0000000      1.000000 
         107.        0.9582       6.73158       182.692        6.2039        8.4772        7.9502       10.4241      0.000000      0.000000     0.0000000      1.000000 
         110.        0.9870       6.68550       182.733        6.2957        8.4738        7.9446       10.4241      0.000000      0.000000     0.0000000      1.000000 
         113.        1.0169       6.63976       182.775        6.3892        8.4703        7.9388       10.4241      0.000000      0.000000     0.0000000      1.000000 
         117.        1.0477       6.59429       182.819        6.4843        8.4667        7.9328       10.4241      0.000000      0.000000     0.0000000      1.000000 
         120.        1.0795       6.54910       182.863        6.5812        8.4630        7.9267       10.4241      0.000000      0.000000     0.0000000      1.000000 
         123.        1.1125       6.50427       182.908        6.6801        8.4591        7.9204       10.4241      0.000000      0.000000     0.0000000      1.000000 
         127.        1.1465       6.45973       182.953        6.7808        8.4551        7.9139       10.4241      0.000000      0.000000     0.0000000      1.000000 
         130.        1.1816       6.41549       183.000        6.8832        8.4510        7.9072       10.4241      0.000000      0.000000     0.0000000      1.000000 
         133.        1.2180       6.37164       183.048        6.9875        8.4467        7.9003       10.4241      0.000000      0.000000     0.0000000      1.000000 
         137.        1.2555       6.32809       183.096        7.0937        8.4423        7.8932       10.4241      0.000000      0.000000     0.0000000      1.000000 
         140.        1.2942       6.28487       183.145        7.2020        8.4378        7.8859       10.4241      0.000000      0.000000     0.0000000      1.000000 
         143.        1.3344       6.24205       183.196        7.3121        8.4331        7.8784       10.4241      0.000000      0.000000     0.0000000      1.000000 
         147.        1.3758       6.19956       183.247        7.4245        8.4282        7.8707       10.4241      0.000000      0.000000     0.0000000      1.000000 
         150.        1.4184       6.15740       183.300        7.5381        8.4232        7.8628       10.4241      0.000000      0.000000     0.0000000      1.000000 
         153.        1.4627       6.11567       183.353        7.6547        8.4180        7.8547       10.4241      0.000000      0.000000     0.0000000      1.000000 
         157.        1.5084       6.07429       183.407        7.7731        8.4126        7.8464       10.4241      0.000000      0.000000     0.0000000      1.000000 
         160.        1.5554       6.03326       183.463        7.8933        8.4071        7.8378       10.4241      0.000000      0.000000     0.0000000      1.000000 
         163.        1.6042       5.99267       183.519        8.0163        8.4014        7.8290       10.4241      0.000000      0.000000     0.0000000      1.000000 
         167.        1.6546       5.95245       183.577        8.1406        8.3955        7.8200       10.4241      0.000000      0.000000     0.0000000      1.000000 
         170.        1.7064       5.91260       183.636        8.2676        8.3894        7.8108       10.4241      0.000000      0.000000     0.0000000      1.000000 
         173.        1.7603       5.87321       183.696        8.3963        8.3831        7.8013       10.4241      0.000000      0.000000     0.0000000      1.000000 
         177.        1.8157       5.83420       183.757        8.5276        8.3767        7.7916       10.4241      0.000000      0.000000     0.0000000      1.000000 
         180.        1.8729       5.79558       183.819        8.6612        8.3700        7.7816       10.4241      0.000000      0.000000     0.0000000      1.000000 
         183.        1.9322       5.75744       183.882        8.7974        8.3632        7.7714       10.4241      0.000000      0.000000     0.0000000      1.000000 
         187.        1.9933       5.71970       183.947        8.9353        8.3561        7.7610       10.4241      0.000000      0.000000     0.0000000      1.000000 
         190.        2.0563       5.68235       184.013        9.0762        8.3488        7.7503       10.4241      0.000000      0.000000     0.0000000      1.000000 
         193.        2.1216       5.64551       184.080        9.2192        8.3413        7.7394       10.4241      0.000000      0.000000     0.0000000      1.000000 
         197.        2.1890       5.60907       184.149        9.3645        8.3336        7.7283       10.4241      0.000000      0.000000     0.0000000      1.000000 
         200.        2.2583       5.57305       184.218        9.5120        8.3256        7.7169       10.4241      0.000000      0.000000     0.0000000      1.000000 
         203.        2.3303       5.53755       184.290        9.6625        8.3174        7.7052       10.4241      0.000000      0.000000     0.0000000      1.000000 
         207.        2.4045       5.50248       184.362        9.8150        8.3090        7.6933       10.4241      0.000000      0.000000     0.0000000      1.000000 
         210.        2.4808       5.46783       184.436        9.9702        8.3003        7.6812       10.4241      0.000000      0.000000     0.0000000      1.000000 
         213.        2.5601       5.43373       184.511       10.1277        8.2914        7.6688       10.4241      0.000000      0.000000     0.0000000      1.000000 
         217.        2.6417       5.40006       184.588       10.2878        8.2823        7.6562       10.4241      0.000000      0.000000     0.0000000      1.000000 
         220.        2.7258       5.36684       184.666       10.4503        8.2729        7.6433       10.4241      0.000000      0.000000     0.0000000      1.000000 
         223.        2.8129       5.33418       184.746       10.6157        8.2633        7.6302       10.4241      0.000000      0.000000     0.0000000      1.000000 
         227.        2.9027       5.30197       184.827       10.7834        8.2534        7.6169       10.4241      0.000000      0.000000     0.0000000      1.000000 
         230.        2.9952       5.27022       184.910       10.9535        8.2433        7.6033       10.4241      0.000000      0.000000     0.0000000      1.000000 
         233.        3.0911       5.23905       184.995       11.1267        8.2329        7.5895       10.4241      0.000000      0.000000     0.0000000      1.000000 
         237.        3.1899       5.20835       185.081       11.3019        8.2223        7.5755       10.4241      0.000000      0.000000     0.0000000      1.000000 
         240.        3.2916       5.17812       185.168       11.4798        8.2114        7.5613       10.4241      0.000000      0.000000     0.0000000      1.000000 
         243.        3.3971       5.14849       185.257       11.6605        8.2003        7.5469       10.4241      0.000000      0.000000     0.0000000      1.000000 
         247.        3.5057       5.11935       185.348       11.8437        8.1889        7.5322       10.4241      0.000000      0.000000     0.0000000      1.000000 
         250.        3.6175       5.09070       185.441       12.0292        8.1773        7.5174       10.4241      0.000000      0.000000     0.0000000      1.000000 
         253.        3.7333       5.06266       185.535       12.2176        8.1654        7.5024       10.4241      0.000000      0.000000     0.0000000      1.000000 
         257.        3.8526       5.03513       185.632       12.4084        8.1533        7.4872       10.4241      0.000000      0.000000     0.0000000      1.000000 
         260.        3.9755       5.00811       185.729       12.6018        8.1409        7.4719       10.4241      0.000000      0.000000     0.0000000      1.000000 
         263.        4.1027       4.98171       185.829       12.7976        8.1283        7.4563       10.4241      0.000000      0.000000     0.0000000      1.000000 
         267.        4.2337       4.95583       185.931       12.9961        8.1155        7.4407       10.4241      0.000000      0.000000     0.0000000      1.000000 
         270.        4.3685       4.93049       186.034       13.1966        8.1024        7.4249       10.4241      0.000000      0.000000     0.0000000      1.000000 
         273.        4.5082       4.90579       186.139       13.4001        8.0891        7.4089       10.4241      0.000000      0.000000     0.0000000      1.000000 
         277.        4.6520       4.88162       186.246       13.6059        8.0756        7.3929       10.4241      0.000000      0.000000     0.0000000      1.000000 
         280.        4.7999       4.85801       186.355       13.8135        8.0619        7.3768       10.4241      0.000000      0.000000     0.0000000      1.000000 
         283.        4.9531       4.83505       186.466       14.0241        8.0480        7.3606       10.4241      0.000000      0.000000     0.0000000      1.000000 
         287.        5.1107       4.81265       186.579       14.2367        8.0339        7.3443       10.4241      0.000000      0.000000     0.0000000      1.000000 
         290.        5.2729       4.79081       186.693       14.4515        8.0196        7.3279       10.4241      0.000000      0.000000     0.0000000      1.000000 
         293.        5.4408       4.76964       186.810       14.6686        8.0052        7.3116       10.4241      0.000000      0.000000     0.0000000      1.000000 
         297.        5.6135       4.74905       186.928       14.8877        7.9906        7.2952       10.4241      0.000000      0.000000     0.0000000      1.000000 
         300.        5.7911       4.72903       187.049       15.1088        7.9758        7.2787       10.4241      0.000000      0.000000     0.0000000      1.000000 
         303.        5.9750       4.70971       187.171       15.3320        7.9609        7.2624       10.4241      0.000000      0.000000     0.0000000      1.000000 
         307.        6.1640       4.69098       187.296       15.5571        7.9459        7.2460       10.4241      0.000000      0.000000     0.0000000      1.000000 
         310.        6.3584       4.67283       187.422       15.7836        7.9308        7.2297       10.4241      0.000000      0.000000     0.0000000      1.000000 
         313.        6.5596       4.65540       187.550       16.0124        7.9156        7.2135       10.2585      0.000000      0.000000     0.0000000      1.000000 
         317.        6.7663       4.63856       187.680       16.2425        7.9004        7.1973       10.2585      0.000000      0.000000     0.0000000      1.000000 
         320.        6.9789       4.62232       187.812       16.4741        7.8851        7.1813       10.2585      0.000000      0.000000     0.0000000      1.000000 
         323.        7.1987       4.60681       187.947       16.7074        7.8698        7.1654       10.2585      0.000000      0.000000     0.0000000      1.000000 
         327.        7.4246       4.59191       188.082       16.9417        7.8544        7.1496       10.2585      0.000000      0.000000     0.0000000      1.000000 
         330.        7.6568       4.57762       188.220       17.1772        7.8391        7.1340       10.2585      0.000000      0.000000     0.0000000      1.000000 
         333.        7.8968       4.56406       188.360       17.4141        7.8237        7.1186       10.2585      0.000000      0.000000     0.0000000      1.000000 
         337.        8.1433       4.55111       188.501       17.6517        7.8085        7.1034       10.2585      0.000000      0.000000     0.0000000      1.000000 
         340.        8.3966       4.53879       188.644       17.8902        7.7933        7.0884       10.2585      0.000000      0.000000     0.0000000      1.000000 
         343.        8.6583       4.52721       188.789       18.1297        7.7782        7.0737       10.2585      0.000000      0.000000     0.0000000      1.000000 
         347.        8.9270       4.51624       188.935       18.3693        7.7631        7.0592       10.2585      0.000000      0.000000     0.0000000      1.000000 
         350.        9.2030       4.50591       189.084       18.6094        7.7483        7.0451       10.2585      0.000000      0.000000     0.0000000      1.000000 
         353.        9.4880       4.49630       189.233       18.8500        7.7335        7.0312       10.2585      0.000000      0.000000     0.0000000      1.000000 
         357.        9.7805       4.48733       189.384       19.0906        7.7190        7.0176       10.2585      0.000000      0.000000     0.0000000      1.000000 
         360.       10.0807       4.47897       189.537       19.3311        7.7047        7.0044       10.2585      0.000000      0.000000     0.0000000      1.000000 
         363.       10.3906       4.47135       189.691       19.5717        7.6905        6.9916       10.2585      0.000000      0.000000     0.0000000      1.000000 
         367.       10.7086       4.46434       189.846       19.8118        7.6767        6.9791       10.2585      0.000000      0.000000     0.0000000      1.000000 
         370.       11.0348       4.45796       190.003       20.0513        7.6630        6.9670       10.2585      0.000000      0.000000     0.0000000      1.000000 
         373.       11.3712       4.45230       190.160       20.2905        7.6497        6.9553       10.2585      0.000000      0.000000     0.0000000      1.000000 
         377.       11.7163       4.44724       190.319       20.5288        7.6367        6.9440       10.2585      0.000000      0.000000     0.0000000      1.000000 
         380.       12.0701       4.44279       190.479       20.7658        7.6240        6.9331       10.2585      0.000000      0.000000     0.0000000      1.000000 
